* Exported with UsyTrace, available at https://usyless.uk/trace
* Freq(Hz)	SPL(dB)
20.000000	84.679746
20.290907	84.790041
20.586045	84.901941
20.885476	85.015469
21.189262	85.130648
21.497467	85.247502
21.810155	85.366056
22.127391	85.486334
22.449241	85.608362
22.775773	85.732164
23.107054	85.857768
23.443154	85.985198
23.784142	86.114482
24.130091	86.245646
24.481071	86.378719
24.837156	86.513726
25.198421	86.650698
25.564940	86.789662
25.936791	86.930647
26.314050	87.073683
26.696797	87.218799
27.085111	87.366026
27.479073	87.515394
27.878765	87.666936
28.284271	87.820681
28.695675	87.976662
29.113064	88.134913
29.536523	88.254650
29.966142	88.360304
30.402009	88.467494
30.844217	88.576243
31.292856	88.686575
31.748021	88.798511
32.209807	88.912075
32.678309	89.027291
33.153626	89.144182
33.635857	89.262774
34.125101	89.383091
34.621462	89.505158
35.125043	89.629001
35.635949	89.754645
36.154286	89.882116
36.680162	90.011442
37.213687	90.142648
37.754973	90.275763
38.304131	90.399100
38.861278	90.492300
39.426528	90.586855
40.000000	90.682785
40.581813	90.780111
41.172089	90.878852
41.770951	90.979029
42.378524	91.080664
42.994934	91.183777
43.620309	91.288390
44.254781	91.394524
44.898482	91.482077
45.551545	91.563242
46.214108	91.645587
46.886308	91.729129
47.568285	91.813887
48.260181	91.899878
48.962142	91.987119
49.674312	92.075629
50.396842	92.106241
51.129881	92.123996
51.873582	92.142010
52.628101	92.160286
53.393594	92.178827
54.170222	92.263669
54.958146	92.405156
55.757531	92.548700
56.568542	92.694333
57.391351	92.842084
58.226127	92.969871
59.073046	93.040337
59.932283	93.111828
60.804018	93.184358
61.688433	93.257944
62.585712	93.332524
63.496042	93.352675
64.419613	93.373119
65.356618	93.393860
66.307252	93.414903
67.271713	93.465572
68.250203	93.563496
69.242925	93.662844
70.250086	93.763638
71.271897	93.865897
72.308571	93.969644
73.360323	94.074900
74.427374	94.181686
75.509945	94.290026
76.608262	94.399942
77.722555	94.511457
78.853056	94.624594
80.000000	94.739376
81.163627	94.855828
82.344179	94.973973
83.541903	95.093837
84.757048	95.174286
85.989867	95.224900
87.240619	95.276250
88.509563	95.328347
89.796964	95.381202
91.103091	95.434826
92.428216	95.489230
93.772615	95.544425
95.136569	95.600423
96.520362	95.657235
97.924283	95.714874
99.348625	95.773351
100.793684	95.832679
102.259762	95.892869
103.747164	95.922861
105.256202	95.941886
106.787188	95.961187
108.340444	95.980769
109.916292	96.000635
111.515061	96.020791
113.137085	96.041240
114.782702	96.061986
116.452255	96.083034
118.146092	96.104388
119.864566	96.126053
121.608036	96.148033
123.376866	96.170333
125.171424	96.192957
126.992084	96.158130
128.839227	96.115880
130.713236	96.073015
132.614504	96.029527
134.543426	95.985406
136.500406	95.940643
138.485850	95.903596
140.500173	95.885332
142.543795	95.866803
144.617142	95.848004
146.720647	95.828932
148.854748	95.809582
151.019890	95.789950
153.216525	95.770033
155.445111	95.749827
157.706112	95.729326
160.000000	95.708528
162.327254	95.687427
164.688358	95.666018
167.083805	95.644299
169.514095	95.622264
171.979734	95.599908
174.481237	95.577227
177.019125	95.554216
179.593928	95.530870
182.206182	95.496945
184.856431	95.460727
187.545230	95.424280
190.273138	95.388394
193.040725	95.351986
195.848567	95.324875
198.697250	95.304555
201.587368	95.283939
204.519524	95.263024
207.494329	95.241805
210.512403	95.218263
213.574377	95.194309
216.680888	95.170007
219.832584	95.145410
223.030122	95.125255
226.274170	95.104808
229.565404	95.084063
232.904509	95.063017
236.292183	95.036006
239.729132	95.000024
243.216073	94.963519
246.753732	94.899760
250.342848	94.891397
253.984168	94.945669
257.678453	94.873299
261.426473	94.836352
265.229008	94.807534
269.086853	94.778297
273.000811	94.745610
276.971700	94.709569
281.000346	94.673003
285.087590	94.653114
289.234284	94.635343
293.441294	94.617314
297.709496	94.599022
302.039780	94.580464
306.433050	94.560902
310.890221	94.540575
315.412224	94.519951
320.000000	94.499028
324.654507	94.477800
329.376716	94.442129
334.167610	94.405837
339.028190	94.372101
343.959469	94.343471
348.962474	94.314424
354.038251	94.283845
359.187855	94.235874
364.412363	94.197450
369.712863	94.269776
375.090460	94.231490
380.546277	94.204094
386.081450	94.232762
391.697134	94.261848
397.394500	94.282541
403.174736	94.254674
409.039048	94.226401
414.988657	94.197717
421.024807	94.168616
427.148753	94.139091
433.361775	94.109137
439.665167	94.107093
446.060244	94.127118
452.548340	94.147434
459.130807	94.168046
465.809019	94.188957
472.584367	94.210173
479.458265	94.231698
486.432146	94.253535
493.507464	94.275690
500.685695	94.298167
507.968337	94.320972
515.356906	94.344107
522.852945	94.367580
530.458016	94.396403
538.173706	94.433754
546.001623	94.471649
553.943399	94.510094
562.000691	94.549099
570.175180	94.588672
578.468569	94.628820
586.882588	94.669552
595.418991	94.710876
604.079560	94.752802
612.866100	94.795337
621.780442	94.838491
630.824447	94.877955
640.000000	94.914000
649.309014	94.950570
658.753431	94.985841
668.335221	95.021387
678.056380	95.057449
687.918938	95.094037
697.924949	95.131156
708.076501	95.167534
718.375711	95.203627
728.824726	95.240245
739.425726	95.287915
750.180921	95.336525
761.092554	95.384453
772.162900	95.433047
783.394268	95.480992
794.789000	95.530685
806.349472	95.602971
818.078095	95.675299
829.977315	95.747733
842.049613	95.820272
854.297507	95.892606
866.723550	95.964918
879.330334	96.026294
892.120489	96.074539
905.096680	96.122824
918.261614	96.171085
931.618037	96.219354
945.168733	96.267632
958.916529	96.328604
972.864291	96.371371
987.014928	96.298917
1001.371391	96.162181
1015.936673	96.058833
1030.713812	96.016578
1045.705890	96.064682
1060.916032	96.119777
1076.347412	96.192303
1092.003245	96.333978
1107.886798	96.478885
1124.001383	96.623360
1140.350359	96.720293
1156.937137	96.792749
1173.765175	96.867252
1190.837983	97.011965
1208.159120	97.156853
1225.732199	97.301583
1243.560885	97.446456
1261.648894	97.591202
1280.000000	97.736059
1298.618029	97.880822
1317.506863	98.025664
1336.670442	98.170443
1356.112761	98.315270
1375.837875	98.460065
1395.849898	98.545110
1416.153002	98.654259
1436.751422	98.780915
1457.649452	98.828974
1478.851452	98.882388
1500.361842	98.954156
1522.185107	99.026967
1544.325799	99.085717
1566.788535	99.134045
1589.577999	99.196733
1612.698944	99.289491
1636.156190	99.389254
1659.954630	99.527371
1684.099226	99.677205
1708.595013	99.749667
1733.447100	99.822235
1758.660669	99.894480
1784.240977	99.966821
1810.193360	100.066234
1836.523229	100.314253
1863.236074	100.546439
1890.337467	100.686046
1917.833058	100.758363
1945.728583	100.830681
1974.029857	100.935091
2002.742782	101.023206
2031.873347	101.129283
2061.427625	101.263573
2091.411780	101.335962
2121.832065	101.563714
2152.694823	101.708528
2184.006490	101.880928
2215.773596	102.054895
2248.002765	102.173858
2280.700718	102.382825
2313.874274	102.527808
2347.530351	102.672778
2381.675966	102.950584
2416.318240	103.240343
2451.464399	103.393483
2487.121769	103.538379
2523.297789	103.683097
2560.000000	103.828009
2597.236057	104.211118
2635.013726	104.596375
2673.340883	104.834904
2712.225522	104.979371
2751.675750	105.124521
2791.699796	105.269404
2832.306004	105.413865
2873.502844	105.553208
2915.298905	105.625528
2957.702904	105.768039
3000.723683	106.057575
3044.370214	106.251820
3088.651599	106.473858
3133.577071	106.607883
3179.155999	106.680276
3225.397888	106.908287
3272.312380	107.127303
3319.909260	107.293325
3368.198452	107.438158
3417.190027	107.535830
3466.894200	107.463365
3517.321337	107.499151
3568.481954	107.547707
3620.386720	107.418227
3673.046457	107.185521
3726.472148	106.991490
3780.674934	106.792584
3835.666117	106.462943
3891.457165	106.122432
3948.059713	105.833032
4005.485564	105.447780
4063.746693	105.158371
4122.855250	104.767710
4182.823560	104.333547
4243.664130	104.003087
4305.389646	103.713612
4368.012981	103.317574
4431.547192	103.004907
4496.005531	103.026085
4561.401437	103.130714
4627.748549	103.294557
4695.060701	103.584130
4763.351932	103.851752
4832.636481	103.960689
4902.928797	104.007984
4974.243539	103.935564
5046.595577	103.829734
5120.000000	103.829734
5194.472115	103.829734
5270.027452	103.856610
5346.681766	103.904929
5424.451043	103.882995
5503.351500	103.791110
5583.399591	103.646225
5664.612008	103.322170
5747.005687	102.613205
5830.597810	101.649500
5915.405808	100.211419
6001.447367	99.195203
6088.740429	97.716948
6177.303198	97.479462
6267.154142	97.316679
6358.311998	96.737784
6450.795775	96.281531
6544.624761	96.078204
6639.818520	95.705640
6736.396904	95.684722
6834.380053	95.662753
6933.788400	95.655273
7034.642675	95.737457
7136.963909	95.882246
7240.773439	96.145036
7346.092914	96.506566
7452.944296	96.801837
7561.349867	97.375437
7671.332234	97.905227
7782.914330	98.732698
7896.119426	99.220781
8010.971128	99.863126
8127.493386	100.215465
8245.710500	100.650078
8365.647121	100.815142
8487.328260	100.782813
8610.779292	100.277330
8736.025961	99.460862
8863.094385	98.310141
8992.011061	96.864904
9122.802874	95.464119
9255.497097	93.863799
9390.121402	91.930115
9526.703863	89.910535
9665.272962	85.939411
9805.857594	81.910526
9948.487077	77.823040
10093.191154	74.436646
10240.000000	78.657688
10388.944230	82.940128
10540.054903	87.284856
10693.363532	89.159990
10848.902086	90.821811
11006.703001	92.536521
11166.799182	94.056963
11329.224017	94.869487
11494.011375	95.297220
11661.195620	95.274102
11830.811616	95.161966
12002.894734	94.855708
12177.480858	94.503594
12354.606395	93.914171
12534.308283	93.018210
12716.623996	91.988964
12901.591551	90.392172
13089.249521	88.226505
13279.637040	86.029338
13472.793808	88.956404
13668.760107	90.664343
13867.576801	92.210613
14069.285350	94.041191
14273.927818	95.421100
14481.546879	96.311844
14692.185828	96.689720
14905.888592	95.930199
15122.699734	94.769138
15342.664467	93.591189
15565.828661	92.396106
15792.238852	91.183640
16021.942256	89.953538
16254.986772	88.705545
16491.420999	87.439398
16731.294241	86.595397
16974.656520	88.009271
17221.558584	89.443711
17472.051922	90.899015
17726.188769	92.375487
17984.022122	92.592581
18245.605748	91.759203
18510.994194	90.913703
18780.242805	90.055905
19053.407727	87.682569
19330.545924	84.250198
19611.715189	82.930688
19896.974155	82.930688
20186.382308	82.930688